id,average_value1,average_value2
1,0.0231994,0
2,0.0259019,0
3,0.0284678,0
4,0.0310918,0
5,0.0339113,0
6,0.0368427,0
7,0.0397733,0
8,0.0429247,0
9,0.0461519,0
10,0.0498265,0
11,0.0542792,0
12,0.0591243,0
13,0.0640659,0
14,0.0697888,0
15,0.0760075,0
16,0.0825577,0
17,0.0898638,0
18,0.097295,0
19,0.105166,0
20,0.111422,0
21,0.118159,0
22,0.124993,0
23,0.132568,0
24,0.138108,0
25,0.14331,0
26,0.146095,0
27,0.147885,0
28,0.151495,0
29,0.156809,0
30,0.160919,0
31,0.163256,0
32,0.16712,0
33,0.170581,0
34,0.172718,0
35,0.175245,0
36,0.179146,0
37,0.183177,0
38,0.187283,0
39,0.189109,0
40,0.190309,0
41,0.192444,0
42,0.197475,0
43,0.203272,0
44,0.205762,0
45,0.208734,0
46,0.21945,0
47,0.22568,0
48,0.227828,0
49,0.228478,0
50,0.22893,0
51,0.227882,0
52,0.228603,0
53,0.228209,0
54,0.228619,0
55,0.229832,0
56,0.231072,0
57,0.234044,0
58,0.238586,0
59,0.239967,0
60,0.242391,0
61,0.245525,0
62,0.255099,0
63,0.261511,0
64,0.260913,0
65,0.263046,0
66,0.261421,0
67,0.261732,0
68,0.262927,0
69,0.266407,0
70,0.266173,0
71,0.265585,0
72,0.266783,0
73,0.267441,0
74,0.267764,0
75,0.270819,0
76,0.281947,0
77,0.286267,0
78,0.286571,0
79,0.288078,0
80,0.287768,0
81,0.287719,0
82,0.287995,0
83,0.289759,0
84,0.293871,0
85,0.297726,0
86,0.297564,0
87,0.29639,0
88,0.29635,0
89,0.298101,0
90,0.300737,0
91,0.305901,0
92,0.315289,0
93,0.316571,0
94,0.316578,0
95,0.31683,0
96,0.316808,0
97,0.316815,0
98,0.316821,0
99,0.316584,0
100,0.317141,0
101,0.316913,0
102,0.317038,0
103,0.317818,0
104,0.317267,0
105,0.316417,0
106,0.31685,0
107,0.317865,0
108,0.31856,0
109,0.318024,0
110,0.318222,0
111,0.31882,0
112,0.319752,0
113,0.317972,0
114,0.319282,0
115,0.318424,0
116,0.318974,0
117,0.318318,0
118,0.318907,0
119,0.31789,0
120,0.319538,0
121,0.318039,0
122,0.317731,0
123,0.31884,0
124,0.31976,0
125,0.318026,0
126,0.319259,0
127,0.319373,0
128,0.320758,0
129,0.31928,0
130,0.319952,0
131,0.321424,0
132,0.321096,0
133,0.317998,0
134,0.320148,0
135,0.31883,0
136,0.319011,0
137,0.318938,0
138,0.320124,0
139,0.319209,0
140,0.320021,0
141,0.319114,0
142,0.319685,0
143,0.319513,0
144,0.318447,0
145,0.320998,0
146,0.32088,0
147,0.321228,0
148,0.32169,0
149,0.321091,0
150,0.320681,0
151,0.321958,0
152,0.32042,0
153,0.321479,0
154,0.321227,0
155,0.320515,0
156,0.320495,0
157,0.32096,0
158,0.319905,0
159,0.320076,0
160,0.320624,0
161,0.320164,0
162,0.321023,0
163,0.321082,0
164,0.320706,0
165,0.32112,0
166,0.319988,0
167,0.320684,0
168,0.319887,0
169,0.320815,0
170,0.321761,0
171,0.321156,0
172,0.320127,0
173,0.321973,0
174,0.320396,0
175,0.321338,0
176,0.320684,0
177,0.320712,0
178,0.321439,0
179,0.321936,0
180,0.320254,0
181,0.320622,0
182,0.319338,0
183,0.320629,0
184,0.321928,0
185,0.322133,0
186,0.323665,0
187,0.324188,0
188,0.323553,0
189,0.325156,0
190,0.323702,0
191,0.323399,0
192,0.324393,0
193,0.323619,0
194,0.325305,0
195,0.3244,0
196,0.323892,0
197,0.325059,0
198,0.32469,0
199,0.324957,0
200,0.324765,0
201,0.324263,0
202,0.326134,0
203,0.326571,0
204,0.327702,0
205,0.328317,0
206,0.32906,0
207,0.328631,0
208,0.329464,0
209,0.329046,0
210,0.329476,0
211,0.330128,0
212,0.329813,0
213,0.328615,0
214,0.328819,0
215,0.329001,0
216,0.329424,0
217,0.329883,0
218,0.327657,0
219,0.329491,0
220,0.328696,0
221,0.32869,0
222,0.329418,0
223,0.329276,0
224,0.329958,0
225,0.333968,0
226,0.345667,0
227,0.348878,0
228,0.349457,0
229,0.347166,0
230,0.349373,0
231,0.350426,0
232,0.349753,0
233,0.350436,0
234,0.349347,0
235,0.350063,0
236,0.350468,0
237,0.349645,0
238,0.350894,0
239,0.350494,0
240,0.350674,0
241,0.350807,0
242,0.352189,0
243,0.352584,0
244,0.35383,0
245,0.35316,0
246,0.353042,0
247,0.353569,0
248,0.354725,0
249,0.352068,0
250,0.352877,0
251,0.354779,0
252,0.354737,0
253,0.353184,0
254,0.355151,0
255,0.354792,0
256,0.354985,0
257,0.355244,0
258,0.354071,0
259,0.355663,0
260,0.354843,0
261,0.355795,0
262,0.357764,0
263,0.358744,0
264,0.359276,0
265,0.358583,0
266,0.360105,0
267,0.359915,0
268,0.360044,0
269,0.360403,0
270,0.360156,0
271,0.360508,0
272,0.360123,0
273,0.360242,0
274,0.361197,0
275,0.36154,0
276,0.363073,0
277,0.363261,0
278,0.363545,0
279,0.363434,0
280,0.363589,0
281,0.363778,0
282,0.364003,0
283,0.364558,0
284,0.364729,0
285,0.364543,0
286,0.364484,0
287,0.364132,0
288,0.364319,0
289,0.366906,0
290,0.365484,0
291,0.366251,0
292,0.365821,0
293,0.365064,0
294,0.365432,0
295,0.365565,0
296,0.365825,0
297,0.365679,0
298,0.365414,0
299,0.36532,0
300,0.365102,0
301,0.366104,0
302,0.366176,0
303,0.36696,0
304,0.366516,0
305,0.365505,0
306,0.366727,0
307,0.36662,0
308,0.36589,0
309,0.365895,0
310,0.365861,0
311,0.366488,0
312,0.366529,0
313,0.366084,0
314,0.366282,0
315,0.366562,0
316,0.365008,0
317,0.36494,0
318,0.36612,0
319,0.366142,0
320,0.365733,0
321,0.365831,0
322,0.365751,0
323,0.365044,0
324,0.366209,0
325,0.365311,0
326,0.366869,0
327,0.366059,0
328,0.365687,0
329,0.366595,0
330,0.364654,0
331,0.366256,0
332,0.367281,0
333,0.365677,0
334,0.366164,0
335,0.366501,0
336,0.366074,0
337,0.366248,0
338,0.366849,0
339,0.366044,0
340,0.367481,0
341,0.365796,0
342,0.366151,0
343,0.366802,0
344,0.365917,0
345,0.365927,0
346,0.366489,0
347,0.366401,0
348,0.368267,0
349,0.368515,0
350,0.370023,0
351,0.369948,0
352,0.369564,0
353,0.370354,0
354,0.370554,0
355,0.370914,0
356,0.370245,0
357,0.370666,0
358,0.370637,0
359,0.370429,0
360,0.369936,0
361,0.371008,0
362,0.370453,0
363,0.369219,0
364,0.369993,0
365,0.370026,0
366,0.370913,0
367,0.370471,0
368,0.372568,0
369,0.374596,0
370,0.374031,0
371,0.37359,0
372,0.375596,0
373,0.374475,0
374,0.374091,0
375,0.374219,0
376,0.373503,0
377,0.373476,0
378,0.373701,0
379,0.373074,0
380,0.374176,0
381,0.375038,0
382,0.375443,0
383,0.374238,0
384,0.374781,0
385,0.375266,0
386,0.374106,0
387,0.375553,0
388,0.37589,0
389,0.376048,0
390,0.374022,0
391,0.374872,0
392,0.374911,0
393,0.37454,0
394,0.376052,0
395,0.375001,0
396,0.375264,0
397,0.374737,0
398,0.374869,0
399,0.374083,0
400,0.374435,0
401,0.374662,0
402,0.374685,0
403,0.375332,0
404,0.375077,0
405,0.374333,0
406,0.375304,0
407,0.375851,0
408,0.374436,0
409,0.374937,0
410,0.374599,0
411,0.373957,0
412,0.373969,0
413,0.375164,0
414,0.375706,0
415,0.375223,0
416,0.375094,0
417,0.374769,0
418,0.375795,0
419,0.375119,0
420,0.373842,0
421,0.373857,0
422,0.375013,0
423,0.375397,0
424,0.376571,0
425,0.376884,0
426,0.377427,0
427,0.377142,0
428,0.375578,0
429,0.376721,0
430,0.376136,0
431,0.37722,0
432,0.375852,0
433,0.377277,0
434,0.376232,0
435,0.376753,0
436,0.376539,0
437,0.376525,0
438,0.376645,0
439,0.376834,0
440,0.375732,0
441,0.375861,0
442,0.376029,0
443,0.377079,0
444,0.376384,0
445,0.377143,0
446,0.376898,0
447,0.376337,0
448,0.376874,0
449,0.376917,0
450,0.37662,0
451,0.377375,0
452,0.37668,0
453,0.376621,0
454,0.377532,0
455,0.377158,0
456,0.376543,0
457,0.377484,0
458,0.376414,0
459,0.376578,0
460,0.376465,0
461,0.376633,0
462,0.377042,0
463,0.377558,0
464,0.376595,0
465,0.377004,0
466,0.376932,0
467,0.376301,0
468,0.376906,0
469,0.377433,0
470,0.376815,0
471,0.377222,0
472,0.376757,0
473,0.376085,0
474,0.37753,0
475,0.378045,0
476,0.376253,0
477,0.377415,0
478,0.376702,0
479,0.377187,0
480,0.376575,0
481,0.377263,0
482,0.377039,0
483,0.376464,0
484,0.376443,0
485,0.376173,0
486,0.376823,0
487,0.377134,0
488,0.376617,0
489,0.376072,0
490,0.377187,0
491,0.376886,0
492,0.377048,0
493,0.377162,0
494,0.377115,0
495,0.376244,0
496,0.376977,0
497,0.377247,0
498,0.377426,0
499,0.376574,0
500,0.377258,0
501,0.37698,0
502,0.377631,0
503,0.377068,0
504,0.376162,0
505,0.377212,0
506,0.377294,0
507,0.376538,0
508,0.377272,0
509,0.376907,0
510,0.376904,0
511,0.37754,0
512,0.376363,0
513,0.376421,0
514,0.376682,0
515,0.377226,0
516,0.377268,0
517,0.377067,0
518,0.377406,0
519,0.377732,0
520,0.37645,0
521,0.375855,0
522,0.377874,0
523,0.377222,0
524,0.376496,0
525,0.376806,0
526,0.377364,0
527,0.376963,0
528,0.377234,0
529,0.377231,0
530,0.377886,0
531,0.377023,0
532,0.376414,0
533,0.377188,0
534,0.376408,0
535,0.376376,0
536,0.376859,0
537,0.377091,0
538,0.377613,0
539,0.376735,0
540,0.377275,0
541,0.377058,0
542,0.376498,0
543,0.376525,0
544,0.377087,0
545,0.375531,0
546,0.376805,0
547,0.377904,0
548,0.377137,0
549,0.377206,0
550,0.376039,0
551,0.376861,0
552,0.377346,0
553,0.376997,0
554,0.377492,0
555,0.376787,0
556,0.377654,0
557,0.377544,0
558,0.377424,0
559,0.377525,0
560,0.377364,0
561,0.377738,0
562,0.377074,0
563,0.376478,0
564,0.376834,0
565,0.377781,0
566,0.377115,0
567,0.378206,0
568,0.377393,0
569,0.378621,0
570,0.376898,0
571,0.377724,0
572,0.377383,0
573,0.378291,0
574,0.378026,0
575,0.377172,0
576,0.378006,0
577,0.37734,0
578,0.377026,0
579,0.377705,0
580,0.377499,0
581,0.377226,0
582,0.376788,0
583,0.377316,0
584,0.378612,0
585,0.37829,0
586,0.377422,0
587,0.37783,0
588,0.377265,0
589,0.37745,0
590,0.378125,0
591,0.37759,0
592,0.377434,0
593,0.376929,0
594,0.378415,0
595,0.378238,0
596,0.37751,0
597,0.377041,0
598,0.377215,0
599,0.377216,0
600,0.376188,0
601,0.378232,0
602,0.377125,0
603,0.377435,0
604,0.378423,0
605,0.376723,0
606,0.376683,0
607,0.376994,0
608,0.37685,0
609,0.377092,0
610,0.378083,0
611,0.378365,0
612,0.377173,0
613,0.378332,0
614,0.378015,0
615,0.377762,0
616,0.378445,0
617,0.378219,0
618,0.376921,0
619,0.376664,0
620,0.377573,0
621,0.377918,0
622,0.377839,0
623,0.377663,0
624,0.377714,0
625,0.378621,0
626,0.377908,0
627,0.377404,0
628,0.377727,0
629,0.378144,0
630,0.377696,0
631,0.377421,0
632,0.377572,0
633,0.377299,0
634,0.377741,0
635,0.377262,0
636,0.378193,0
637,0.377895,0
638,0.377356,0
639,0.378072,0
640,0.377342,0
641,0.377652,0
642,0.377838,0
643,0.376765,0
644,0.377879,0
645,0.378194,0
646,0.377087,0
647,0.376918,0
648,0.377188,0
649,0.378172,0
650,0.377558,0
651,0.37934,0
652,0.378375,0
653,0.377897,0
654,0.377812,0
655,0.378596,0
656,0.377776,0
657,0.376918,0
658,0.377947,0
659,0.377096,0
660,0.377026,0
661,0.377456,0
662,0.377178,0
663,0.376652,0
664,0.377999,0
665,0.377158,0
666,0.378616,0
667,0.378491,0
668,0.378002,0
669,0.378467,0
670,0.377608,0
671,0.377529,0
672,0.377038,0
673,0.377376,0
674,0.378257,0
675,0.376832,0
676,0.377815,0
677,0.377224,0
678,0.376417,0
679,0.377535,0
680,0.377507,0
681,0.37796,0
682,0.378098,0
683,0.377799,0
684,0.377329,0
685,0.378593,0
686,0.377472,0
687,0.377236,0
688,0.377035,0
689,0.37774,0
690,0.377898,0
691,0.377932,0
692,0.378359,0
693,0.378223,0
694,0.377007,0
695,0.377345,0
696,0.378397,0
697,0.377324,0
698,0.377237,0
699,0.377215,0
700,0.378719,0
701,0.377522,0
702,0.376872,0
703,0.37706,0
704,0.377539,0
705,0.37794,0
706,0.377333,0
707,0.376953,0
708,0.377557,0
709,0.377501,0
710,0.377975,0
711,0.376833,0
712,0.377962,0
713,0.378143,0
714,0.377728,0
715,0.378179,0
716,0.378737,0
717,0.377208,0
718,0.377342,0
719,0.377986,0
720,0.378245,0
721,0.377849,0
722,0.377488,0
723,0.377819,0
724,0.3777,0
725,0.376866,0
726,0.377199,0
727,0.377633,0
728,0.378488,0
729,0.377195,0
730,0.37758,0
731,0.377952,0
732,0.378154,0
733,0.378214,0
734,0.377036,0
735,0.377638,0
736,0.377248,0
737,0.377692,0
738,0.377331,0
739,0.377679,0
740,0.37698,0
741,0.378349,0
742,0.378753,0
743,0.377268,0
744,0.377694,0
745,0.378229,0
746,0.377202,0
747,0.378079,0
748,0.376913,0
749,0.378008,0
750,0.378288,0
751,0.378156,0
752,0.377699,0
753,0.377314,0
754,0.37724,0
755,0.378036,0
756,0.37733,0
757,0.378068,0
758,0.377269,0
759,0.377334,0
760,0.378893,0
761,0.377741,0
762,0.377673,0
763,0.377548,0
764,0.377872,0
765,0.378226,0
766,0.377136,0
767,0.378044,0
768,0.377594,0
769,0.377326,0
770,0.377847,0
771,0.378337,0
772,0.378403,0
773,0.37687,0
774,0.37829,0
775,0.377622,0
776,0.3763,0
777,0.375981,0
778,0.378051,0
779,0.377097,0
780,0.378147,0
781,0.37763,0
782,0.377725,0
783,0.377541,0
784,0.378029,0
785,0.377182,0
786,0.377512,0
787,0.37762,0
788,0.378216,0
789,0.377869,0
790,0.378244,0
791,0.377572,0
792,0.376164,0
793,0.377937,0
794,0.37706,0
795,0.378511,0
796,0.377946,0
797,0.377747,0
798,0.378052,0
799,0.377867,0
800,0.377559,0
801,0.377972,0
802,0.377882,0
803,0.377798,0
804,0.37759,0
805,0.378423,0
806,0.378572,0
807,0.377937,0
808,0.377708,0
809,0.377794,0
810,0.377803,0
811,0.37729,0
812,0.377656,0
813,0.377826,0
814,0.378066,0
815,0.377606,0
816,0.377789,0
817,0.378213,0
818,0.378156,0
819,0.377284,0
820,0.377498,0
821,0.377971,0
822,0.378294,0
823,0.376904,0
824,0.376861,0
825,0.377406,0
826,0.37756,0
827,0.377779,0
828,0.377263,0
829,0.37797,0
830,0.377505,0
831,0.37678,0
832,0.377121,0
833,0.378144,0
834,0.376979,0
835,0.37797,0
836,0.378275,0
837,0.376285,0
838,0.376969,0
839,0.377368,0
840,0.377084,0
841,0.377588,0
842,0.377155,0
843,0.377029,0
844,0.378045,0
845,0.37727,0
846,0.37741,0
847,0.377755,0
848,0.377778,0
849,0.378189,0
850,0.377805,0
851,0.376942,0
852,0.377058,0
853,0.378009,0
854,0.378505,0
855,0.377796,0
856,0.377692,0
857,0.376618,0
858,0.377955,0
859,0.377421,0
860,0.377542,0
861,0.377158,0
862,0.377938,0
863,0.378196,0
864,0.377585,0
865,0.377751,0
866,0.377329,0
867,0.37709,0
868,0.378282,0
869,0.377747,0
870,0.378005,0
871,0.377464,0
872,0.3773,0
873,0.377444,0
874,0.378109,0
875,0.377228,0
876,0.377668,0
877,0.378106,0
878,0.378057,0
879,0.377567,0
880,0.378134,0
881,0.376537,0
882,0.378412,0
883,0.377894,0
884,0.376988,0
885,0.37764,0
886,0.377341,0
887,0.37704,0
888,0.377292,0
889,0.376578,0
890,0.378263,0
891,0.378359,0
892,0.378345,0
893,0.378509,0
894,0.377655,0
895,0.378241,0
896,0.377293,0
897,0.377309,0
898,0.377912,0
899,0.377381,0
900,0.377932,0
901,0.378226,0
902,0.377731,0
903,0.377753,0
904,0.378869,0
905,0.377651,0
906,0.377224,0
907,0.377664,0
908,0.377272,0
909,0.377757,0
910,0.377743,0
911,0.377362,0
912,0.377686,0
913,0.377237,0
914,0.377774,0
915,0.378751,0
916,0.37742,0
917,0.377595,0
918,0.377572,0
919,0.377367,0
920,0.376699,0
921,0.377841,0
922,0.376717,0
923,0.378301,0
924,0.378034,0
925,0.377447,0
926,0.377291,0
927,0.378182,0
928,0.377297,0
929,0.376993,0
930,0.377371,0
931,0.377643,0
932,0.377458,0
933,0.378131,0
934,0.377582,0
935,0.377483,0
936,0.376882,0
937,0.378136,0
938,0.378149,0
939,0.377219,0
940,0.376892,0
941,0.37765,0
942,0.377607,0
943,0.378136,0
944,0.377885,0
945,0.3785,0
946,0.378073,0
947,0.3774,0
948,0.377405,0
949,0.376488,0
950,0.377335,0
951,0.377637,0
952,0.377673,0
953,0.378202,0
954,0.377936,0
955,0.376184,0
956,0.376644,0
957,0.378472,0
958,0.377732,0
959,0.377153,0
960,0.377372,0
961,0.376602,0
962,0.378247,0
963,0.377137,0
964,0.378359,0
965,0.377814,0
966,0.377174,0
967,0.377481,0
968,0.378248,0
969,0.377541,0
970,0.378031,0
971,0.376941,0
972,0.377301,0
973,0.37933,0
974,0.376718,0
975,0.377496,0
976,0.376417,0
977,0.378039,0
978,0.377829,0
979,0.377485,0
980,0.37793,0
981,0.377105,0
982,0.377409,0
983,0.377928,0
984,0.377491,0
985,0.37733,0
986,0.376912,0
987,0.376334,0
988,0.377974,0
989,0.376748,0
990,0.377377,0
991,0.377628,0
992,0.376255,0
993,0.377511,0
994,0.378777,0
995,0.377251,0
996,0.378109,0
997,0.376607,0
998,0.377661,0
999,0.378369,0
1000,0.377517,0
1001,0.377464,0
1002,0.378147,0
1003,0.377634,0
1004,0.37798,0
1005,0.377615,0
1006,0.378103,0
1007,0.378405,0
1008,0.377642,0
1009,0.377765,0
1010,0.377226,0
1011,0.377303,0
1012,0.376924,0
1013,0.377959,0
1014,0.377828,0
1015,0.377211,0
1016,0.376962,0
1017,0.376553,0
1018,0.378247,0
1019,0.376606,0
1020,0.377672,0
1021,0.378426,0
1022,0.377773,0
1023,0.37789,0
1024,0.377601,0
1025,0.377331,0
1026,0.37848,0
1027,0.378042,0
1028,0.377913,0
1029,0.377225,0
1030,0.377378,0
1031,0.376814,0
1032,0.377161,0
1033,0.377225,0
1034,0.378007,0
1035,0.377277,0
1036,0.378254,0
1037,0.378591,0
1038,0.377834,0
1039,0.377689,0
1040,0.377159,0
1041,0.378205,0
1042,0.377893,0
1043,0.376766,0
1044,0.377193,0
1045,0.377407,0
1046,0.378499,0
1047,0.377587,0
1048,0.377946,0
1049,0.37666,0
1050,0.377223,0
1051,0.377441,0
1052,0.378138,0
1053,0.378074,0
1054,0.376975,0
1055,0.377951,0
1056,0.378368,0
1057,0.377636,0
1058,0.377245,0
1059,0.37717,0
1060,0.378157,0
1061,0.377704,0
1062,0.377537,0
1063,0.377495,0
1064,0.378558,0
1065,0.377928,0
1066,0.376746,0
1067,0.376883,0
1068,0.377909,0
1069,0.378963,0
1070,0.377531,0
1071,0.377566,0
1072,0.377187,0
1073,0.377194,0
1074,0.377355,0
1075,0.376903,0
1076,0.377804,0
1077,0.378088,0
1078,0.377423,0
1079,0.377548,0
1080,0.37746,0
1081,0.377599,0
1082,0.377772,0
1083,0.377017,0
1084,0.377837,0
1085,0.378132,0
1086,0.378008,0
1087,0.377409,0
1088,0.377109,0
1089,0.37812,0
1090,0.376779,0
1091,0.37833,0
1092,0.377648,0
1093,0.377555,0
1094,0.377311,0
1095,0.378243,0
1096,0.377538,0
1097,0.379397,0
1098,0.37799,0
1099,0.376833,0
1100,0.376747,0
1101,0.377157,0
1102,0.37817,0
1103,0.377519,0
1104,0.378229,0
1105,0.377888,0
1106,0.378258,0
1107,0.377835,0
1108,0.377506,0
1109,0.376859,0
1110,0.377042,0
1111,0.378065,0
1112,0.377832,0
1113,0.378014,0
1114,0.377744,0
1115,0.377097,0
1116,0.377791,0
1117,0.377278,0
1118,0.377897,0
1119,0.377739,0
1120,0.376779,0
1121,0.377536,0
1122,0.377936,0
1123,0.378468,0
1124,0.378062,0
1125,0.377789,0
1126,0.377856,0
1127,0.377853,0
1128,0.378078,0
1129,0.37681,0
1130,0.377613,0
1131,0.378505,0
1132,0.377975,0
1133,0.376764,0
1134,0.377407,0
1135,0.377421,0
1136,0.377402,0
1137,0.378066,0
1138,0.378569,0
1139,0.377482,0
1140,0.377956,0
1141,0.377753,0
1142,0.377516,0
1143,0.376545,0
1144,0.377929,0
1145,0.377475,0
1146,0.375845,0
1147,0.3779,0
1148,0.377647,0
1149,0.378419,0
1150,0.377775,0
1151,0.377135,0
1152,0.378278,0
1153,0.377164,0
1154,0.377696,0
1155,0.377136,0
1156,0.378122,0
1157,0.378169,0
1158,0.377936,0
1159,0.37849,0
1160,0.377406,0
1161,0.376818,0
1162,0.377404,0
1163,0.378285,0
1164,0.378065,0
1165,0.377042,0
1166,0.378416,0
1167,0.377527,0
1168,0.376845,0
1169,0.377844,0
1170,0.377524,0
1171,0.376683,0
1172,0.377055,0
1173,0.378221,0
1174,0.377635,0
1175,0.379002,0
1176,0.377943,0
1177,0.377496,0
1178,0.377626,0
1179,0.377857,0
1180,0.377748,0
1181,0.376831,0
1182,0.377558,0
1183,0.378268,0
1184,0.377818,0
1185,0.378312,0
1186,0.377752,0
1187,0.376775,0
1188,0.377847,0
1189,0.377377,0
1190,0.377486,0
1191,0.377599,0
1192,0.377956,0
1193,0.377373,0
1194,0.376708,0
1195,0.377675,0
1196,0.377836,0
1197,0.377329,0
1198,0.377593,0
1199,0.377851,0
1200,0.378469,0
1201,0.377266,0
1202,0.376133,0
1203,0.377997,0
1204,0.377638,0
1205,0.377898,0
1206,0.377324,0
1207,0.377969,0
1208,0.377648,0
1209,0.378097,0
1210,0.378611,0
1211,0.377973,0
1212,0.376956,0
1213,0.377303,0
1214,0.377259,0
1215,0.378089,0
1216,0.377441,0
1217,0.377506,0
1218,0.378123,0
1219,0.376804,0
1220,0.377928,0
1221,0.378343,0
1222,0.378221,0
1223,0.376885,0
1224,0.377678,0
1225,0.378061,0
1226,0.377664,0
1227,0.377517,0
1228,0.377768,0
1229,0.377409,0
1230,0.377713,0
1231,0.377688,0
1232,0.378255,0
1233,0.3783,0
1234,0.377197,0
1235,0.378065,0
1236,0.377948,0
1237,0.37801,0
1238,0.378306,0
1239,0.377598,0
1240,0.377129,0
1241,0.378567,0
1242,0.377043,0
1243,0.377878,0
1244,0.377783,0
1245,0.378318,0
1246,0.377231,0
1247,0.377503,0
1248,0.378413,0
1249,0.378289,0
1250,0.3775,0
1251,0.37841,0
1252,0.377763,0
1253,0.377733,0
1254,0.377737,0
1255,0.37758,0
1256,0.377388,0
1257,0.378283,0
1258,0.37739,0
1259,0.377595,0
1260,0.378193,0
1261,0.377413,0
1262,0.377703,0
1263,0.377475,0
1264,0.377335,0
1265,0.377183,0
1266,0.378412,0
1267,0.377286,0
1268,0.377381,0
1269,0.377126,0
1270,0.377717,0
1271,0.376911,0
1272,0.377606,0
1273,0.376993,0
1274,0.378942,0
1275,0.376911,0
1276,0.377596,0
1277,0.379279,0
1278,0.377292,0
1279,0.378316,0
1280,0.377608,0
1281,0.376768,0
1282,0.376842,0
1283,0.377136,0
1284,0.377576,0
1285,0.377977,0
1286,0.37767,0
1287,0.378165,0
1288,0.376543,0
1289,0.377516,0
1290,0.377759,0
1291,0.378588,0
1292,0.377512,0
1293,0.378638,0
1294,0.376837,0
1295,0.378316,0
1296,0.377657,0
1297,0.377274,0
1298,0.376549,0
1299,0.378511,0
1300,0.378604,0
1301,0.377348,0
1302,0.378177,0
1303,0.376267,0
1304,0.377025,0
1305,0.378122,0
1306,0.37823,0
1307,0.377623,0
1308,0.376683,0
1309,0.378079,0
1310,0.377056,0
1311,0.377852,0
1312,0.378481,0
1313,0.378086,0
1314,0.37758,0
1315,0.378637,0
1316,0.37823,0
1317,0.37741,0
1318,0.378067,0
1319,0.378148,0
1320,0.377391,0
1321,0.377097,0
1322,0.377431,0
1323,0.378232,0
