id,average_value1,average_value2
1,0.0322453,0
2,0.0373018,0
3,0.0425256,0
4,0.0486533,0
5,0.0560989,0
6,0.0657431,0
7,0.0783339,0
8,0.0942674,0
9,0.115484,0
10,0.147238,0
11,0.199642,0
12,0.267119,0
13,0.316581,0
14,0.363304,0
15,0.430376,0
16,0.485852,0
17,0.537444,0
18,0.579184,0
19,0.611988,0
20,0.63621,0
21,0.648308,0
22,0.65138,0
23,0.65458,0
24,0.65345,0
25,0.652405,0
26,0.652523,0
27,0.653816,0
28,0.65461,0
29,0.664268,0
30,0.682375,0
31,0.70443,0
32,0.715023,0
33,0.715196,0
34,0.718419,0
35,0.724783,0
36,0.735908,0
37,0.73784,0
38,0.736463,0
39,0.735492,0
40,0.734734,0
41,0.737175,0
42,0.735547,0
43,0.736591,0
44,0.738578,0
45,0.735895,0
46,0.735041,0
47,0.734542,0
48,0.738117,0
49,0.735767,0
50,0.734126,0
51,0.735551,0
52,0.73695,0
53,0.737769,0
54,0.740407,0
55,0.733355,0
56,0.73613,0
57,0.735131,0
58,0.735848,0
59,0.738558,0
60,0.740954,0
61,0.73538,0
62,0.738618,0
63,0.741522,0
64,0.742429,0
65,0.739292,0
66,0.742418,0
67,0.73914,0
68,0.737436,0
69,0.73999,0
70,0.741213,0
71,0.741537,0
72,0.741417,0
73,0.739579,0
74,0.739137,0
75,0.740247,0
76,0.739672,0
77,0.742081,0
78,0.739349,0
79,0.741304,0
80,0.74383,0
81,0.741658,0
82,0.745368,0
83,0.743662,0
84,0.755626,0
85,0.76117,0
86,0.76542,0
87,0.763966,0
88,0.763188,0
89,0.763337,0
90,0.765621,0
91,0.767041,0
92,0.76491,0
93,0.763358,0
94,0.762755,0
95,0.766743,0
96,0.762988,0
97,0.761993,0
98,0.763072,0
99,0.763308,0
100,0.768222,0
101,0.76251,0
102,0.76655,0
103,0.763977,0
104,0.763478,0
105,0.765453,0
106,0.764928,0
107,0.766132,0
108,0.764503,0
109,0.763399,0
110,0.768443,0
111,0.768151,0
112,0.764936,0
113,0.766582,0
114,0.768907,0
115,0.767166,0
116,0.768233,0
117,0.768065,0
118,0.768181,0
119,0.772177,0
120,0.769206,0
121,0.76984,0
122,0.767798,0
123,0.774125,0
124,0.780397,0
125,0.790483,0
126,0.78994,0
127,0.791146,0
128,0.789904,0
129,0.78938,0
130,0.789655,0
131,0.788954,0
132,0.789486,0
133,0.792174,0
134,0.789424,0
135,0.79119,0
136,0.790711,0
137,0.789789,0
138,0.788407,0
139,0.793395,0
140,0.788693,0
141,0.789355,0
142,0.790523,0
143,0.789208,0
144,0.790481,0
145,0.789798,0
146,0.788257,0
147,0.789369,0
148,0.788654,0
149,0.787595,0
150,0.787717,0
151,0.789606,0
152,0.79073,0
153,0.791349,0
154,0.791012,0
155,0.787247,0
156,0.787354,0
157,0.788322,0
158,0.789332,0
159,0.789068,0
160,0.788711,0
161,0.788988,0
162,0.789866,0
163,0.793274,0
164,0.789259,0
165,0.789152,0
166,0.787233,0
167,0.789163,0
168,0.787478,0
169,0.788974,0
170,0.78761,0
171,0.790207,0
172,0.787404,0
173,0.790034,0
174,0.789684,0
175,0.790473,0
176,0.791087,0
177,0.790938,0
178,0.790916,0
179,0.788837,0
180,0.789155,0
181,0.788248,0
182,0.788695,0
183,0.786308,0
184,0.788534,0
185,0.789065,0
186,0.788282,0
187,0.792026,0
188,0.789133,0
189,0.790083,0
190,0.788055,0
191,0.789751,0
192,0.789666,0
193,0.787358,0
194,0.790647,0
195,0.788646,0
196,0.790273,0
197,0.789837,0
198,0.788638,0
199,0.78553,0
200,0.789098,0
201,0.789949,0
202,0.79144,0
203,0.787801,0
204,0.790972,0
205,0.789626,0
206,0.789639,0
207,0.790995,0
208,0.786782,0
209,0.792616,0
210,0.793317,0
211,0.783218,0
212,0.793256,0
213,0.799963,0
214,0.806348,0
215,0.811282,0
216,0.81739,0
217,0.821286,0
218,0.820092,0
219,0.822096,0
220,0.822964,0
221,0.825841,0
222,0.82197,0
223,0.824839,0
224,0.823819,0
225,0.823297,0
226,0.825162,0
227,0.82352,0
228,0.823817,0
229,0.82658,0
230,0.828226,0
231,0.829097,0
232,0.828626,0
233,0.828799,0
234,0.828639,0
235,0.831343,0
236,0.833924,0
237,0.829761,0
238,0.82905,0
239,0.831505,0
240,0.832272,0
241,0.833045,0
242,0.831254,0
243,0.83004,0
244,0.833638,0
245,0.830675,0
246,0.833806,0
247,0.831224,0
248,0.830431,0
249,0.831544,0
250,0.830102,0
251,0.829879,0
252,0.831169,0
253,0.831519,0
254,0.829036,0
255,0.830842,0
256,0.831814,0
257,0.829438,0
258,0.830959,0
259,0.832803,0
260,0.832662,0
261,0.831629,0
262,0.830295,0
263,0.830476,0
264,0.831686,0
265,0.832542,0
266,0.828014,0
267,0.832914,0
268,0.831895,0
269,0.831534,0
270,0.83385,0
271,0.831755,0
272,0.831368,0
273,0.831021,0
274,0.833084,0
275,0.833512,0
276,0.83167,0
277,0.831476,0
278,0.830448,0
279,0.8299,0
280,0.832575,0
281,0.829863,0
282,0.831246,0
283,0.835262,0
284,0.833179,0
285,0.832111,0
286,0.831879,0
287,0.831068,0
288,0.833037,0
289,0.83287,0
290,0.835227,0
291,0.83403,0
292,0.834108,0
293,0.834247,0
294,0.831462,0
295,0.834053,0
296,0.833103,0
297,0.831071,0
298,0.832042,0
299,0.833295,0
300,0.834721,0
301,0.834575,0
302,0.832402,0
303,0.833831,0
304,0.831675,0
305,0.83185,0
306,0.833933,0
307,0.832832,0
308,0.832818,0
309,0.833787,0
310,0.834881,0
311,0.832,0
312,0.832861,0
313,0.83323,0
314,0.832525,0
315,0.833831,0
316,0.832988,0
317,0.833281,0
318,0.832357,0
319,0.832559,0
320,0.832284,0
321,0.833644,0
322,0.836016,0
323,0.833797,0
324,0.835214,0
325,0.837089,0
326,0.834807,0
327,0.834494,0
328,0.834115,0
329,0.834502,0
330,0.834433,0
331,0.834177,0
332,0.83289,0
333,0.834357,0
334,0.836022,0
335,0.833945,0
336,0.834256,0
337,0.835097,0
338,0.833688,0
339,0.836634,0
340,0.835086,0
341,0.835053,0
342,0.8343,0
343,0.834883,0
344,0.833787,0
345,0.835346,0
346,0.833529,0
347,0.833595,0
348,0.834243,0
349,0.834622,0
350,0.834592,0
351,0.832622,0
352,0.837663,0
353,0.834652,0
354,0.835122,0
355,0.835928,0
356,0.835443,0
357,0.835866,0
358,0.835365,0
359,0.835522,0
360,0.83564,0
361,0.836645,0
362,0.834214,0
363,0.836262,0
364,0.833703,0
365,0.834594,0
366,0.835884,0
367,0.834241,0
368,0.835255,0
369,0.836153,0
370,0.834983,0
371,0.833718,0
372,0.834535,0
373,0.83162,0
374,0.837673,0
375,0.83534,0
376,0.83442,0
377,0.8336,0
378,0.833551,0
379,0.835211,0
380,0.835462,0
381,0.835058,0
382,0.833529,0
383,0.835174,0
384,0.835047,0
385,0.83486,0
386,0.835891,0
387,0.834947,0
388,0.83393,0
389,0.835246,0
390,0.836762,0
391,0.836659,0
392,0.835784,0
393,0.835204,0
394,0.834941,0
395,0.832855,0
396,0.833219,0
397,0.834989,0
398,0.835287,0
399,0.836691,0
400,0.836033,0
401,0.832695,0
402,0.836352,0
403,0.835686,0
404,0.834197,0
405,0.83458,0
406,0.834892,0
407,0.832433,0
408,0.833974,0
409,0.833659,0
410,0.83362,0
411,0.834271,0
412,0.833346,0
413,0.83662,0
414,0.83466,0
415,0.83411,0
416,0.833217,0
417,0.833384,0
418,0.834954,0
419,0.83705,0
420,0.835806,0
421,0.835627,0
422,0.83729,0
423,0.832651,0
424,0.836095,0
425,0.833591,0
426,0.834791,0
427,0.834266,0
428,0.834867,0
429,0.833915,0
430,0.83407,0
431,0.834951,0
432,0.834793,0
433,0.835551,0
434,0.836692,0
435,0.832427,0
436,0.835355,0
437,0.833696,0
438,0.836541,0
439,0.834574,0
440,0.834449,0
441,0.835992,0
442,0.834394,0
443,0.834716,0
444,0.833649,0
445,0.834943,0
446,0.834512,0
447,0.834484,0
448,0.834891,0
449,0.833312,0
450,0.836597,0
451,0.835597,0
452,0.83539,0
453,0.83579,0
454,0.834461,0
455,0.835974,0
456,0.83168,0
457,0.835853,0
458,0.8326,0
459,0.833296,0
460,0.833965,0
461,0.835586,0
462,0.833973,0
463,0.836711,0
464,0.835833,0
465,0.834824,0
466,0.834548,0
467,0.837028,0
468,0.835885,0
469,0.834341,0
470,0.835386,0
471,0.833857,0
472,0.835612,0
473,0.833699,0
474,0.835359,0
475,0.836075,0
476,0.835454,0
477,0.83447,0
478,0.833431,0
479,0.834495,0
480,0.833942,0
481,0.836493,0
482,0.835263,0
483,0.833651,0
484,0.833853,0
485,0.834611,0
486,0.833846,0
487,0.834871,0
488,0.833419,0
489,0.836119,0
490,0.834861,0
491,0.833124,0
492,0.83565,0
493,0.834747,0
494,0.833097,0
495,0.83401,0
496,0.834986,0
497,0.834276,0
498,0.832978,0
499,0.836813,0
500,0.833882,0
501,0.833343,0
502,0.83349,0
503,0.835634,0
504,0.833873,0
505,0.83331,0
506,0.833516,0
507,0.833599,0
508,0.835467,0
509,0.833923,0
510,0.833004,0
511,0.835532,0
512,0.835009,0
513,0.835161,0
514,0.836273,0
515,0.836445,0
516,0.833464,0
517,0.834836,0
518,0.834307,0
519,0.836163,0
520,0.834501,0
521,0.833677,0
522,0.834277,0
523,0.836177,0
524,0.835299,0
525,0.834887,0
526,0.83425,0
527,0.835666,0
528,0.836591,0
529,0.835482,0
530,0.834162,0
531,0.835122,0
532,0.834817,0
533,0.832973,0
534,0.833186,0
535,0.834297,0
536,0.834675,0
537,0.833736,0
538,0.833604,0
539,0.830926,0
540,0.83515,0
541,0.83652,0
542,0.834943,0
543,0.832854,0
544,0.833891,0
545,0.832769,0
546,0.836007,0
547,0.834368,0
548,0.834727,0
549,0.836614,0
550,0.835278,0
551,0.835695,0
552,0.835657,0
553,0.835188,0
554,0.835208,0
555,0.83549,0
556,0.833237,0
557,0.833163,0
558,0.833471,0
559,0.834481,0
560,0.834638,0
561,0.835316,0
562,0.835786,0
563,0.833821,0
564,0.835667,0
565,0.833741,0
566,0.835249,0
567,0.835936,0
568,0.836408,0
569,0.834607,0
570,0.834312,0
571,0.833583,0
572,0.834445,0
573,0.835759,0
574,0.833672,0
575,0.834542,0
576,0.835262,0
577,0.833792,0
578,0.835602,0
579,0.836045,0
580,0.835014,0
581,0.831388,0
582,0.836557,0
583,0.833851,0
584,0.835585,0
585,0.834283,0
586,0.832804,0
587,0.833632,0
588,0.836109,0
589,0.833686,0
590,0.8362,0
591,0.834559,0
592,0.836054,0
593,0.832181,0
594,0.832559,0
595,0.836643,0
596,0.835313,0
597,0.835042,0
598,0.834752,0
599,0.83391,0
600,0.834922,0
601,0.83492,0
602,0.837032,0
603,0.832398,0
604,0.833827,0
605,0.836094,0
606,0.834221,0
607,0.834451,0
608,0.834655,0
609,0.835271,0
610,0.83342,0
611,0.835232,0
612,0.834767,0
613,0.834581,0
614,0.834223,0
615,0.835612,0
616,0.833854,0
617,0.834682,0
618,0.83547,0
619,0.835754,0
620,0.836009,0
621,0.836181,0
622,0.835643,0
623,0.832695,0
624,0.832969,0
625,0.836106,0
626,0.834159,0
627,0.83524,0
628,0.833745,0
629,0.832648,0
630,0.834917,0
631,0.835831,0
632,0.832954,0
633,0.836249,0
634,0.834964,0
635,0.833886,0
636,0.83777,0
637,0.833631,0
638,0.834953,0
639,0.836578,0
640,0.835236,0
641,0.835281,0
642,0.83484,0
643,0.835532,0
644,0.833913,0
645,0.836333,0
646,0.835836,0
647,0.83436,0
648,0.836229,0
649,0.835711,0
650,0.835187,0
651,0.834168,0
652,0.836133,0
653,0.833114,0
654,0.834051,0
655,0.835752,0
656,0.833226,0
657,0.835052,0
658,0.833513,0
659,0.834275,0
660,0.837612,0
661,0.835727,0
662,0.833283,0
663,0.836255,0
664,0.834621,0
665,0.833881,0
666,0.832517,0
667,0.833331,0
668,0.836065,0
669,0.834315,0
670,0.834866,0
671,0.83536,0
672,0.832848,0
673,0.837947,0
674,0.835244,0
675,0.833532,0
676,0.834407,0
677,0.833642,0
678,0.835984,0
679,0.83345,0
680,0.834348,0
681,0.836729,0
682,0.833391,0
683,0.835502,0
684,0.833525,0
685,0.834365,0
686,0.834424,0
687,0.832986,0
688,0.831924,0
689,0.835503,0
690,0.833162,0
691,0.835045,0
692,0.833522,0
693,0.834645,0
694,0.834188,0
695,0.834587,0
696,0.835405,0
697,0.835018,0
698,0.835363,0
699,0.834084,0
700,0.83518,0
701,0.83625,0
702,0.836464,0
703,0.833351,0
704,0.834195,0
705,0.833702,0
706,0.835245,0
707,0.834964,0
708,0.836921,0
709,0.831804,0
710,0.833999,0
711,0.833758,0
712,0.83465,0
713,0.836675,0
714,0.833164,0
715,0.833063,0
716,0.833932,0
717,0.831589,0
718,0.83525,0
719,0.833364,0
720,0.834887,0
721,0.835518,0
722,0.833807,0
723,0.833354,0
724,0.835676,0
725,0.834895,0
726,0.83423,0
727,0.835735,0
728,0.834024,0
729,0.833059,0
730,0.834509,0
731,0.837987,0
732,0.836297,0
733,0.834635,0
734,0.835718,0
735,0.833801,0
736,0.834779,0
737,0.836169,0
738,0.833691,0
739,0.832793,0
740,0.835367,0
741,0.835748,0
742,0.834698,0
743,0.835853,0
744,0.835546,0
745,0.833436,0
746,0.835638,0
747,0.835299,0
748,0.834322,0
749,0.835867,0
750,0.832203,0
751,0.836182,0
752,0.834119,0
753,0.834233,0
754,0.835315,0
755,0.834152,0
756,0.833153,0
757,0.837081,0
758,0.833638,0
759,0.834903,0
760,0.834219,0
761,0.834994,0
762,0.83348,0
763,0.835552,0
764,0.835268,0
765,0.834784,0
766,0.832361,0
767,0.835976,0
768,0.8357,0
769,0.834512,0
770,0.834386,0
771,0.834309,0
772,0.833763,0
773,0.834009,0
774,0.833555,0
775,0.834409,0
776,0.834452,0
777,0.835124,0
778,0.835536,0
779,0.834005,0
780,0.833587,0
781,0.831656,0
782,0.835148,0
783,0.835052,0
784,0.836173,0
785,0.835866,0
786,0.835903,0
787,0.832231,0
788,0.836743,0
789,0.836271,0
790,0.834455,0
791,0.8338,0
792,0.834805,0
793,0.833445,0
794,0.835188,0
795,0.833731,0
796,0.833518,0
797,0.835121,0
798,0.833501,0
799,0.835792,0
800,0.836301,0
801,0.834268,0
802,0.835541,0
803,0.834953,0
804,0.832533,0
805,0.834408,0
806,0.834988,0
807,0.834555,0
808,0.833884,0
809,0.836505,0
810,0.836435,0
811,0.833134,0
812,0.835773,0
813,0.831516,0
814,0.835781,0
815,0.83455,0
816,0.835057,0
817,0.835051,0
818,0.835218,0
819,0.83462,0
820,0.833208,0
821,0.832935,0
822,0.834344,0
823,0.833446,0
824,0.83443,0
825,0.834531,0
826,0.833322,0
827,0.835365,0
828,0.836324,0
829,0.834975,0
830,0.834151,0
831,0.836674,0
832,0.835089,0
833,0.836511,0
834,0.836655,0
835,0.835504,0
836,0.834447,0
837,0.835077,0
838,0.833687,0
839,0.836078,0
840,0.835195,0
841,0.834393,0
842,0.834233,0
843,0.834912,0
844,0.833737,0
845,0.834772,0
846,0.83553,0
847,0.835105,0
848,0.8337,0
849,0.834893,0
850,0.833999,0
851,0.835103,0
852,0.836124,0
853,0.835264,0
854,0.834583,0
855,0.836005,0
856,0.8341,0
857,0.834369,0
858,0.83297,0
859,0.832687,0
860,0.83428,0
861,0.834905,0
862,0.833004,0
863,0.835603,0
864,0.835365,0
865,0.83514,0
866,0.834504,0
867,0.833303,0
868,0.834214,0
869,0.836489,0
870,0.834171,0
871,0.837057,0
872,0.834502,0
873,0.834724,0
874,0.83463,0
875,0.834212,0
876,0.835018,0
877,0.835255,0
878,0.833039,0
879,0.834216,0
880,0.835923,0
881,0.834599,0
882,0.83406,0
883,0.831016,0
884,0.837075,0
885,0.833958,0
886,0.835825,0
887,0.832966,0
888,0.83417,0
889,0.834465,0
890,0.835359,0
891,0.836397,0
892,0.834399,0
893,0.833353,0
894,0.835988,0
895,0.833935,0
896,0.832778,0
897,0.834188,0
898,0.83381,0
899,0.836869,0
900,0.835116,0
901,0.836139,0
902,0.833443,0
903,0.834999,0
904,0.833692,0
905,0.834896,0
906,0.834714,0
907,0.832633,0
908,0.835216,0
909,0.833921,0
910,0.833806,0
911,0.834671,0
912,0.835346,0
913,0.834887,0
914,0.832453,0
915,0.833498,0
916,0.834724,0
917,0.834389,0
918,0.836421,0
919,0.832978,0
920,0.83716,0
921,0.833908,0
922,0.832557,0
923,0.835405,0
924,0.832852,0
925,0.834555,0
926,0.833551,0
927,0.833971,0
928,0.834908,0
929,0.834557,0
930,0.835364,0
931,0.833954,0
932,0.836004,0
933,0.83646,0
934,0.835068,0
935,0.83623,0
936,0.836339,0
937,0.836124,0
938,0.83378,0
939,0.834397,0
940,0.834595,0
941,0.835034,0
942,0.832972,0
943,0.836825,0
944,0.834122,0
945,0.837386,0
946,0.834892,0
947,0.833443,0
948,0.835314,0
949,0.834596,0
950,0.833777,0
951,0.833937,0
952,0.835452,0
953,0.836792,0
954,0.832322,0
955,0.833537,0
956,0.836277,0
957,0.834276,0
958,0.834313,0
959,0.83538,0
960,0.835316,0
961,0.831866,0
962,0.834282,0
963,0.834693,0
964,0.834823,0
965,0.836068,0
966,0.833753,0
967,0.834903,0
968,0.834599,0
969,0.832186,0
970,0.834743,0
971,0.833289,0
972,0.835608,0
973,0.833714,0
974,0.836736,0
975,0.835415,0
976,0.834381,0
977,0.833268,0
978,0.83439,0
979,0.834126,0
980,0.833389,0
981,0.835445,0
982,0.83511,0
983,0.834234,0
984,0.837449,0
985,0.833227,0
986,0.832934,0
987,0.835537,0
988,0.835883,0
989,0.8341,0
990,0.833012,0
991,0.834962,0
992,0.832688,0
993,0.83522,0
994,0.836255,0
995,0.83352,0
996,0.835348,0
997,0.834158,0
998,0.835701,0
999,0.83378,0
1000,0.835246,0
1001,0.834827,0
1002,0.836216,0
1003,0.834089,0
1004,0.835095,0
1005,0.834967,0
1006,0.834409,0
1007,0.835227,0
1008,0.835017,0
1009,0.833791,0
1010,0.832874,0
1011,0.834246,0
1012,0.83495,0
1013,0.832674,0
1014,0.8359,0
1015,0.834081,0
1016,0.834877,0
1017,0.835277,0
1018,0.834536,0
1019,0.836557,0
1020,0.833866,0
1021,0.835072,0
1022,0.83277,0
1023,0.834468,0
1024,0.834968,0
1025,0.835,0
1026,0.831545,0
1027,0.834034,0
1028,0.835256,0
1029,0.833999,0
1030,0.832436,0
1031,0.834069,0
1032,0.836154,0
1033,0.833346,0
1034,0.836339,0
1035,0.834334,0
1036,0.834443,0
1037,0.835551,0
1038,0.835007,0
1039,0.833324,0
1040,0.834594,0
1041,0.833938,0
1042,0.837103,0
1043,0.833795,0
1044,0.832641,0
1045,0.835993,0
1046,0.833651,0
1047,0.835364,0
1048,0.834568,0
1049,0.835519,0
1050,0.836819,0
1051,0.835645,0
1052,0.835011,0
1053,0.834998,0
1054,0.835093,0
1055,0.833227,0
1056,0.834252,0
1057,0.833839,0
1058,0.835691,0
1059,0.835424,0
1060,0.833134,0
1061,0.833191,0
1062,0.834484,0
1063,0.833879,0
1064,0.835211,0
1065,0.832786,0
1066,0.833445,0
1067,0.836104,0
1068,0.833096,0
1069,0.833492,0
1070,0.834836,0
1071,0.834558,0
1072,0.834182,0
1073,0.834863,0
1074,0.835101,0
1075,0.834217,0
1076,0.834449,0
1077,0.833633,0
1078,0.834157,0
1079,0.837135,0
1080,0.836564,0
1081,0.834961,0
1082,0.836422,0
1083,0.833599,0
1084,0.832708,0
1085,0.836823,0
1086,0.83525,0
1087,0.835388,0
1088,0.834763,0
1089,0.834767,0
1090,0.834993,0
1091,0.836206,0
1092,0.835655,0
1093,0.834095,0
1094,0.83437,0
1095,0.834179,0
1096,0.835924,0
1097,0.836137,0
1098,0.835142,0
1099,0.834577,0
1100,0.833305,0
1101,0.834441,0
1102,0.834328,0
1103,0.835634,0
1104,0.835427,0
1105,0.833506,0
1106,0.834415,0
1107,0.834245,0
1108,0.835615,0
1109,0.834484,0
1110,0.835135,0
1111,0.833429,0
1112,0.834651,0
1113,0.831558,0
1114,0.83509,0
1115,0.835234,0
1116,0.834581,0
1117,0.833853,0
1118,0.833017,0
1119,0.835167,0
1120,0.835118,0
1121,0.833603,0
1122,0.836281,0
1123,0.832061,0
1124,0.8347,0
1125,0.8376,0
1126,0.836441,0
1127,0.833409,0
1128,0.837309,0
1129,0.834394,0
1130,0.835598,0
1131,0.835365,0
1132,0.836396,0
1133,0.834862,0
1134,0.834859,0
1135,0.83475,0
1136,0.833475,0
1137,0.835429,0
1138,0.836021,0
1139,0.833883,0
1140,0.835851,0
1141,0.833958,0
1142,0.833565,0
1143,0.832853,0
1144,0.833566,0
1145,0.833295,0
1146,0.832886,0
1147,0.834421,0
1148,0.835561,0
1149,0.835616,0
1150,0.835417,0
1151,0.834458,0
1152,0.834798,0
1153,0.836458,0
1154,0.832895,0
1155,0.833989,0
1156,0.834687,0
1157,0.834518,0
1158,0.835401,0
1159,0.834647,0
1160,0.833835,0
1161,0.835002,0
1162,0.834699,0
1163,0.835188,0
1164,0.831924,0
1165,0.834173,0
1166,0.834772,0
1167,0.833946,0
1168,0.834978,0
1169,0.834869,0
1170,0.835075,0
1171,0.834059,0
1172,0.835471,0
1173,0.834331,0
1174,0.836507,0
1175,0.836851,0
1176,0.834622,0
1177,0.834065,0
1178,0.837231,0
1179,0.835964,0
1180,0.836867,0
1181,0.835027,0
1182,0.833229,0
1183,0.835111,0
1184,0.833307,0
1185,0.835606,0
1186,0.833216,0
1187,0.835619,0
1188,0.834011,0
1189,0.835489,0
1190,0.835954,0
1191,0.834957,0
1192,0.834111,0
1193,0.834005,0
1194,0.835254,0
1195,0.834937,0
1196,0.832604,0
1197,0.833504,0
1198,0.835084,0
1199,0.833986,0
1200,0.835274,0
1201,0.832541,0
1202,0.833555,0
1203,0.833277,0
1204,0.834733,0
1205,0.835307,0
1206,0.834214,0
1207,0.836158,0
1208,0.833526,0
1209,0.834732,0
1210,0.834009,0
1211,0.834923,0
1212,0.836062,0
1213,0.835636,0
1214,0.833596,0
1215,0.834243,0
1216,0.835159,0
1217,0.835264,0
1218,0.835759,0
1219,0.833948,0
1220,0.835221,0
1221,0.833799,0
1222,0.836509,0
1223,0.833538,0
1224,0.835158,0
1225,0.834401,0
1226,0.834905,0
1227,0.835944,0
1228,0.833173,0
1229,0.83498,0
1230,0.83322,0
1231,0.833675,0
1232,0.834855,0
1233,0.835958,0
1234,0.834757,0
1235,0.836778,0
1236,0.834143,0
1237,0.83377,0
1238,0.835823,0
1239,0.834963,0
1240,0.835445,0
1241,0.833629,0
1242,0.835372,0
1243,0.833564,0
1244,0.833905,0
1245,0.834877,0
1246,0.835022,0
1247,0.834263,0
1248,0.835491,0
1249,0.835294,0
1250,0.834644,0
1251,0.833337,0
1252,0.834765,0
1253,0.834946,0
1254,0.836035,0
1255,0.835334,0
1256,0.833508,0
1257,0.833566,0
1258,0.834543,0
1259,0.834224,0
1260,0.833535,0
1261,0.832619,0
1262,0.8339,0
1263,0.834684,0
1264,0.835381,0
1265,0.835749,0
1266,0.832499,0
1267,0.835366,0
1268,0.834738,0
1269,0.837068,0
1270,0.836882,0
1271,0.834417,0
1272,0.834575,0
1273,0.834345,0
1274,0.835357,0
1275,0.834592,0
1276,0.833901,0
1277,0.834861,0
1278,0.836516,0
1279,0.83372,0
1280,0.833774,0
1281,0.835622,0
1282,0.836367,0
1283,0.832664,0
1284,0.835328,0
1285,0.835141,0
1286,0.834612,0
1287,0.834364,0
1288,0.835474,0
1289,0.836853,0
1290,0.834155,0
1291,0.834673,0
1292,0.833824,0
1293,0.835198,0
1294,0.835475,0
1295,0.837032,0
1296,0.834257,0
1297,0.83448,0
1298,0.833769,0
1299,0.836387,0
1300,0.833926,0
1301,0.834171,0
1302,0.834923,0
1303,0.834619,0
1304,0.836958,0
1305,0.833793,0
1306,0.835866,0
1307,0.834057,0
1308,0.83327,0
1309,0.836139,0
1310,0.834757,0
1311,0.833657,0
1312,0.833189,0
1313,0.834582,0
1314,0.834453,0
1315,0.833248,0
1316,0.833267,0
1317,0.835448,0
1318,0.834654,0
1319,0.836674,0
1320,0.834332,0
1321,0.833278,0
1322,0.837268,0
1323,0.836391,0
1324,0.836324,0
1325,0.832108,0
